record,n_epoch,movement_found,delay_ms,onset_time,peak_time,mep_amplitude_mV,trigger_sample,trigger_time_ms,peak_amp,peak_prominence,peak_area,peak_times,peak_onsets,peak_amps,peak_areas,threshold,noise_median,noise_sigma,fraction_max,n_peaks,emg_ptp_mV,mep_baseline_mV
08_06TG_tms_58MSO_real.hdf,1,True,75.2,75.2,77.6,4.024078845977783,38483,7696.6,1.072789777709831e-10,1.020212157794911e-10,1.5762512315578454e-10,"[77.6, 91.0, 117.6, 127.8, 147.8, 167.6, 184.0, 211.2, 231.0, 248.8]","[75.2, 90.4, 115.2, 127.2, 147.2, 167.0, 182.6, 211.0, 230.8, 248.2]","[1.072789777709831e-10, 1.0793026788353369e-10, 9.968277368502871e-11, 4.6648372901518325e-11, 6.152378507999707e-11, 5.314572136325469e-11, 1.0949748491918955e-10, 3.435726060243807e-11, 3.906521482879023e-11, 3.670467607013885e-11]","[1.5762512315578454e-10, 2.0434658331556438e-10, 2.0092236341132925e-10, 2.3148783988061417e-11, 4.060912974844245e-11, 2.5924719478006153e-11, 1.952403599859052e-10, 3.8121806240793855e-12, 1.0883068836221738e-11, 1.3121151009849834e-11]",2.8835563086327065e-11,5.257761991491992e-12,5.894450273708768e-12,1.0,10,0.3290665052956288,0.003071521408855915
08_06TG_tms_58MSO_real.hdf,2,True,92.4,92.4,94.2,0.439449667930603,62862,12572.4,3.078901331421508e-09,2.2404284122803298e-09,1.37637944804314e-08,"[94.2, 108.2, 119.2, 132.8, 147.4, 160.6, 173.8, 210.6, 230.6, 250.6, 284.8]","[92.4, 92.4, 92.4, 127.0, 147.0, 160.0, 173.6, 210.2, 230.2, 250.2, 282.4]","[3.078901331421508e-09, 5.4393197532782926e-08, 8.324394400055631e-08, 3.0636611010128763e-10, 1.2121875710201026e-10, 1.2639391243836281e-10, 4.754565261737425e-11, 5.150330762511484e-11, 6.048399935556959e-11, 3.8061564821820515e-11, 8.190673686783585e-11]","[1.37637944804314e-08, 2.9002343350676617e-07, 2.693682079845305e-07, 2.0933769324158337e-09, 1.4267691423167469e-10, 9.59005339055328e-11, 1.368755113569286e-11, 1.7010306081470402e-11, 2.6336420673618846e-11, 6.041762135330713e-12, 1.5013827788712768e-10]",2.576231019727822e-11,4.8023129360952454e-12,5.239999315295743e-12,1.0,11,3.235363863472278,-0.0003839422424789518
08_06TG_tms_58MSO_real.hdf,3,True,78.0,78.0,78.4,3.087118148803711,87199,17439.8,6.988123968408323e-11,7.088354882483796e-11,4.991937283820394e-11,"[78.4, 91.6, 111.6, 141.6, 161.6, 181.6]","[78.0, 91.2, 111.2, 141.4, 161.4, 181.4]","[6.988123968408323e-11, 6.695171992137657e-11, 3.739182437845596e-11, 4.0629247799834646e-11, 4.387584536746975e-11, 3.941154454130481e-11]","[4.991937283820394e-11, 2.920304172460853e-11, 3.9550186773983765e-12, 5.9242079679183475e-12, 8.155709750699334e-12, 4.868131454616329e-12]",2.9541565878049746e-11,4.771329519878254e-12,6.192559089542873e-12,0.42857142857142855,6,0.2267410283492506,0.0007623137207701802
08_06TG_tms_58MSO_real.hdf,4,False,,,,0.46976667642593384,113786,22757.2,,,,[],[],[],[],2.7668460671502038e-11,5.18847275072576e-12,5.6199969801940696e-12,0.0,0,0.03906684801698712,-0.0009107974474318326
08_06TG_tms_58MSO_real.hdf,5,False,,,,0.4018331468105316,138957,27791.4,,,,[],[],[],[],3.192427400970578e-11,6.59558235649992e-12,6.332172913301464e-12,0.0,0,0.07562450461821246,0.0004272943187970668
08_06TG_tms_58MSO_real.hdf,6,False,,,,1.6134003400802612,164961,32992.2,,,,[],[],[],[],2.92613725636289e-11,5.821234835621319e-12,5.860034432001897e-12,0.0,0,0.11874999569728942,-0.0008067421731539071
08_06TG_tms_58MSO_real.hdf,7,False,,,,0.06415684521198273,190465,38093.0,,,,[],[],[],[],3.104023150024381e-11,5.805202366877498e-12,6.308757283341579e-12,0.0,0,0.029826219238703523,-0.0007736023981124163
08_06TG_tms_58MSO_real.hdf,8,True,75.2,75.2,76.4,3.83195424079895,214969,42993.8,7.974325090751814e-11,7.496248897697933e-11,2.2303829124809937e-10,"[76.4, 94.0, 114.0, 124.0, 134.0, 144.0, 164.0, 184.0, 204.0, 234.0, 254.0]","[75.2, 91.6, 113.4, 123.6, 133.8, 143.6, 163.6, 183.6, 203.6, 233.6, 253.6]","[7.974325090751814e-11, 9.154574830394705e-11, 6.739328966955354e-11, 4.319337051304192e-11, 3.52825594072884e-11, 6.074926002475729e-11, 6.018548373993049e-11, 5.631230318279638e-11, 4.561351664593766e-11, 3.7092183034250355e-11, 4.200251228140715e-11]","[2.2303829124809937e-10, 9.79704922452987e-11, 3.492281427114009e-11, 8.940569119941358e-12, 3.4490396290628702e-12, 3.6101232862972973e-11, 2.8795596034601664e-11, 2.4360306397580112e-11, 1.0895438110172101e-11, 5.000986843732447e-12, 9.004562032308324e-12]",2.809898540401155e-11,4.7807619305388125e-12,5.829555868368184e-12,0.8235294117647058,11,0.28505317415863385,0.00038821157068014145
08_06TG_tms_58MSO_real.hdf,9,False,,,,0.27989038825035095,239931,47986.2,,,,[],[],[],[],3.0768601486567826e-11,5.789500794395316e-12,6.244775173043127e-12,0.0,0,0.04471612905598485,0.0013277309481054544
08_06TG_tms_58MSO_real.hdf,10,False,,,,0.5314272046089172,265185,53037.0,,,,[],[],[],[],3.151318548589893e-11,5.366080334322114e-12,6.536776287894204e-12,0.0,0,0.05337432858886752,-0.0003524838830344379
08_06TG_tms_58MSO_real.hdf,11,False,,,,1.0215901136398315,291314,58262.8,,,,[],[],[],[],2.9560178268891613e-11,4.98995526586047e-12,6.142555750757787e-12,0.0,0,0.10252492605620275,-0.00032851920695975423
08_06TG_tms_58MSO_real.hdf,12,True,91.4,91.4,92.2,3.289078712463379,316484,63296.8,7.79553417850927e-11,8.253909734382672e-11,4.674864054166963e-11,"[92.2, 112.2, 122.2, 142.4, 162.4, 182.2, 202.4]","[91.4, 111.8, 121.8, 142.0, 162.0, 182.0, 202.0]","[7.79553417850927e-11, 5.042268782783562e-11, 4.081076782815521e-11, 4.3002395435417534e-11, 3.930620676703513e-11, 3.6519228205826486e-11, 3.745811677602872e-11]","[4.674864054166963e-11, 1.2978050367392287e-11, 6.431162173782355e-12, 7.385293711343566e-12, 4.686267830243558e-12, 2.779331850250144e-12, 3.2846571803205556e-12]",3.013765902470054e-11,5.602491440626932e-12,6.133791896018402e-12,0.47619047619047616,7,0.2326755954718217,0.0011203697649762034
08_06TG_tms_58MSO_real.hdf,13,True,75.2,75.2,75.6,3.5932931900024414,340280,68056.0,6.613529528186949e-11,6.102356909207006e-11,1.9562674416251587e-10,"[75.6, 93.2, 113.2, 143.4, 163.4, 183.4, 203.4, 223.4, 253.2]","[75.2, 91.0, 112.6, 142.8, 162.8, 182.8, 203.0, 223.0, 253.0]","[6.613529528186949e-11, 9.09989641037183e-11, 5.5341587794911545e-11, 5.990483471911053e-11, 6.635714906466166e-11, 5.5373196830003303e-11, 4.45658112825638e-11, 4.019913926921712e-11, 3.788070956386508e-11]","[1.9562674416251587e-10, 7.038717863719355e-11, 1.8233506826571503e-11, 2.7550875540075908e-11, 2.7176342128866873e-11, 1.795177504124823e-11, 7.598031544902454e-12, 4.752630954757479e-12, 3.665853086352572e-12]",3.0794199871702897e-11,5.111726189799438e-12,6.4206184204758645e-12,0.9047619047619048,9,0.2681229612648885,0.0006007102783769369
08_06TG_tms_58MSO_real.hdf,14,True,78.4,78.4,79.0,3.13334059715271,365117,73023.4,6.871889399475903e-11,8.708457033933606e-11,7.487976287855916e-11,"[79.0, 92.6, 112.6, 122.6, 142.6, 162.6, 182.6, 202.8, 222.8]","[78.4, 92.2, 112.2, 121.8, 142.2, 162.0, 182.0, 202.4, 222.4]","[6.871889399475903e-11, 6.218748872829879e-11, 4.717274934538746e-11, 4.7764716695279627e-11, 5.219495583363683e-11, 5.10711143929714e-11, 5.647014604797625e-11, 4.1375868392789185e-11, 4.115648856191461e-11]","[7.487976287855916e-11, 5.720313882757144e-11, 1.7582848709286652e-11, 2.2081294829284078e-11, 1.9204829747573243e-11, 1.732803718272899e-11, 2.8917131042822985e-11, 8.509287709276508e-12, 8.280083636558319e-12]",2.857390580241478e-11,4.173148701526791e-12,6.1001892752219975e-12,0.6666666666666666,9,0.25215314681958695,0.0006591497221961617
08_06TG_tms_58MSO_real.hdf,15,True,76.4,76.4,77.0,2.9507176876068115,391204,78240.8,6.158121060871885e-11,6.243138988709202e-11,7.455459094089387e-11,"[77.0, 98.6, 114.8, 144.8, 164.8, 184.8, 204.8]","[76.4, 96.2, 114.4, 144.4, 164.4, 184.4, 204.6]","[6.158121060871885e-11, 1.4787311074539062e-10, 5.2335718761909284e-11, 5.791743682805083e-11, 5.908150716790472e-11, 4.8453128938339186e-11, 4.311293405040005e-11]","[7.455459094089387e-11, 2.729065060078323e-10, 2.0928558755152068e-11, 2.4507004226796048e-11, 2.29105522776213e-11, 1.3045034748815187e-11, 7.030061920792448e-12]",3.149708726253288e-11,5.611429765507422e-12,6.471414374256365e-12,0.8095238095238095,7,0.22791511199801695,0.0012278640642762184
08_06TG_tms_58MSO_real.hdf,16,False,,,,0.022701222449541092,418583,83716.6,,,,[],[],[],[],3.002715649789929e-11,5.178777052643657e-12,6.212094861313909e-12,0.0,0,0.032050913527881905,0.0007530915318056941
08_06TG_tms_58MSO_real.hdf,17,True,85.8,85.8,87.6,1.1360938549041748,443754,88750.8,1.7983639873877855e-10,1.8065238748544429e-10,3.647102445135079e-10,"[87.6, 107.6, 248.2]","[85.8, 107.2, 246.0]","[1.7983639873877855e-10, 4.703916855098229e-11, 8.249758426363886e-11]","[3.647102445135079e-10, 1.8672042127372106e-11, 1.7064057763385065e-10]",3.022043723705551e-11,5.755414709780489e-12,6.116255631818754e-12,1.0,3,0.12197708827100039,-1.2800759577658027e-05
08_06TG_tms_58MSO_real.hdf,18,True,123.4,123.4,123.6,0.19287340342998505,469966,93993.2,3.62809302597466e-11,2.7211533779800284e-11,4.839390962080833e-12,"[123.6, 138.2, 149.6]","[123.4, 127.4, 144.4]","[3.62809302597466e-11, 3.1750859469100093e-09, 2.817591849797001e-10]","[4.839390962080833e-12, 1.0973339592358268e-08, 1.0582836729302023e-09]",3.302286322843905e-11,5.946699481958459e-12,6.769040936620148e-12,1.0,3,0.625776756195383,-0.0007579611847177148
08_06TG_tms_58MSO_real.hdf,19,False,,,,1.2248700857162476,493803,98760.6,,,,[],[],[],[],3.3675547931232775e-11,5.661904304490602e-12,7.003410906685542e-12,0.0,0,0.10400888833029141,-9.378312824992463e-05
08_06TG_tms_58MSO_real.hdf,20,True,78.2,78.2,78.6,3.845668077468872,518974,103794.8,9.201633816122593e-11,1.1117315657970304e-10,7.77086762394854e-11,"[78.6, 92.0, 110.0, 139.8, 162.2, 270.0]","[78.2, 91.2, 109.6, 139.4, 161.8, 269.6]","[9.201633816122593e-11, 1.1108126520569388e-10, 5.507050913451299e-11, 5.294080496343214e-11, 5.342967570405952e-11, 4.780439853869792e-11]","[7.77086762394854e-11, 1.427463798859945e-10, 2.7010174216860354e-11, 1.4422866832912479e-11, 1.815597933686536e-11, 9.489541481562574e-12]",3.874622456720033e-11,7.590307214381759e-12,7.788979338204644e-12,0.8095238095238095,6,0.29730947236937255,0.0006149331456981599
08_06TG_tms_58MSO_real.hdf,21,True,94.4,94.4,95.2,3.968886375427246,545603,109120.6,1.1806098497510884e-10,1.2647435794350416e-10,9.937659045769421e-11,"[95.2, 115.2, 125.2, 145.2, 165.2, 185.2, 205.4, 255.2]","[94.4, 114.8, 124.8, 144.8, 164.8, 185.0, 205.0, 255.0]","[1.1806098497510884e-10, 5.955517221579186e-11, 5.969465083789071e-11, 8.283736938026513e-11, 7.484839581526077e-11, 6.1362939008754e-11, 4.7874826021601944e-11, 4.719143374895545e-11]","[9.937659045769421e-11, 1.4650165757730998e-11, 1.5605498840570047e-11, 4.037475743221698e-11, 2.91167344576604e-11, 1.595709298280482e-11, 4.7674497004818275e-12, 4.38719694556647e-12]",3.842847369532161e-11,6.723995098292027e-12,7.926119649257397e-12,0.7619047619047619,8,0.32191891728036187,0.002513185376301408
08_06TG_tms_58MSO_real.hdf,22,False,,,,4.409005165100098,572024,114404.8,,,,[],[],[],[],1.4537904229647867e-10,9.062029929596087e-12,1.2262983699348983e-11,0.0,0,0.3436338436093793,0.0007583596743643284
08_06TG_tms_58MSO_real.hdf,23,True,75.2,75.2,76.2,4.310544967651367,598736,119747.2,7.953177749516962e-11,7.325270701935777e-11,2.018616248173685e-10,"[76.2, 94.0, 124.0, 144.2, 164.0, 214.0]","[75.2, 93.4, 123.6, 143.6, 163.6, 213.6]","[7.953177749516962e-11, 1.2966843829553482e-10, 8.23814705494116e-11, 8.629801045884766e-11, 8.575532918714589e-11, 6.420008346265636e-11]","[2.018616248173685e-10, 8.09299881079199e-11, 2.37987839784997e-11, 2.5826506998535337e-11, 2.4207946483779783e-11, 6.3566685513121506e-12]",5.1322752455638684e-11,6.279070475811849e-12,8.228904296999421e-12,0.625,6,0.35276488964926384,0.004170650150626898
08_06TG_tms_58MSO_real.hdf,24,False,,,,0.03677479550242424,625657,125131.4,,,,[],[],[],[],4.030744464271737e-11,6.358907727332834e-12,8.487134228846133e-12,0.0,0,0.03916364081224934,9.236032929038629e-05
08_06TG_tms_58MSO_real.hdf,25,True,77.8,77.8,78.6,3.529148817062378,654203,130840.6,1.0281218485888475e-10,1.187734070161143e-10,1.2398341352187408e-10,"[78.6, 96.0, 116.4, 142.0, 162.2, 182.2]","[77.8, 93.6, 116.0, 141.4, 161.6, 181.8]","[1.0281218485888475e-10, 2.589224156113834e-10, 6.894033185196539e-11, 7.892332238906106e-11, 6.737095912897921e-11, 5.574377015154811e-11]","[1.2398341352187408e-10, 5.336938224470946e-10, 5.27836520296154e-11, 4.24453029499894e-11, 2.727087809000739e-11, 1.03711339569914e-11]",3.8878477991732097e-11,6.544101663226021e-12,8.083594082126519e-12,0.7619047619047619,6,0.30636625129754147,0.002462847623974085
08_06TG_tms_58MSO_real.hdf,26,True,122.2,122.2,129.2,0.6635196805000305,681499,136299.8,4.7403881399667204e-09,4.7479126182364514e-09,1.483462233918912e-08,"[129.2, 263.4]","[122.2, 251.4]","[4.7403881399667204e-09, 1.1309518325274506e-09]","[1.483462233918912e-08, 3.4752618978572685e-09]",3.5508850239104916e-11,6.178522338728803e-12,7.332581975094028e-12,1.0,2,0.6210115438049231,-0.00029638895648531616
08_06TG_tms_58MSO_real.hdf,27,True,132.6,132.6,135.4,2.267859935760498,709462,141892.4,6.558877095116011e-11,7.4668026170899e-11,8.19582491172231e-11,"[77.6, 90.8, 135.4, 160.4, 178.6, 191.6, 201.8, 215.6, 237.8, 255.4, 268.6]","[77.2, 90.4, 132.6, 155.0, 177.6, 177.6, 200.8, 208.0, 234.6, 253.8, 265.6]","[6.011651472819942e-11, 4.810049808673807e-11, 6.558877095116011e-11, 6.031822353741754e-10, 5.6607808015104725e-11, 1.3162168615334784e-09, 1.932922328768326e-10, 1.3018501269727638e-09, 5.099485650091419e-10, 1.4276243221953295e-10, 5.967054304674737e-11]","[1.677838759420221e-11, 1.3677651598224494e-11, 8.19582491172231e-11, 2.181530256995301e-09, 2.6764086822839494e-10, 4.48180813025951e-09, 3.928944777099695e-10, 4.069506376990961e-09, 1.6056976523816e-09, 2.9094257075289623e-10, 6.235595048545384e-11]",3.4871425284671746e-11,5.92281999030248e-12,7.237151323592316e-12,1.0,11,0.4228293447359792,0.0006236085318960249
08_06TG_tms_58MSO_real.hdf,28,True,121.2,121.2,127.6,1.1301051378250122,733674,146734.8,6.597295109152742e-10,6.632946638212819e-10,2.2051541624002435e-09,"[127.6, 186.2, 198.2]","[121.2, 183.6, 190.8]","[6.597295109152742e-10, 6.842038500398906e-10, 1.2369511510008363e-09]","[2.2051541624002435e-09, 1.9993401378402914e-09, 3.590281275140238e-09]",3.176793510111794e-11,5.314909238065077e-12,6.6132564657632154e-12,1.0,3,0.3203224001476118,-0.0002827011630870402
08_06TG_tms_58MSO_real.hdf,29,True,94.0,94.0,96.6,2.3528292179107666,758844,151768.8,1.8669573175459178e-10,2.0487071154247982e-10,3.9871328803703665e-10,"[96.6, 117.0, 142.8, 162.8, 182.8, 287.4]","[94.0, 116.6, 142.4, 162.4, 182.6, 286.2]","[1.8669573175459178e-10, 5.413118843936235e-11, 4.257905831333868e-11, 4.911869079409472e-11, 4.4584907840114006e-11, 7.31115147342214e-11]","[3.9871328803703665e-10, 3.494391199989587e-11, 7.141385298379142e-12, 1.297043851381735e-11, 9.452105621660827e-12, 1.0065578034594801e-10]",3.026816341992493e-11,5.4378386382907485e-12,6.207581195408544e-12,0.8095238095238095,6,0.19892814488463612,-0.0008529808255843818
08_06TG_tms_58MSO_real.hdf,30,True,116.2,116.2,120.8,0.8232160806655884,786890,157378.0,5.869917451846264e-10,5.915302601316336e-10,1.948923277804547e-09,"[120.8, 131.8, 243.6]","[116.2, 128.8, 238.6]","[5.869917451846264e-10, 2.787500782823433e-10, 2.1530725972070053e-10]","[1.948923277804547e-09, 1.1467203556013956e-09, 5.235596504102659e-10]",3.2096700581632596e-11,5.989647088423785e-12,6.526763373302203e-12,1.0,3,0.2534110528277293,-0.002004061359912157
08_06TG_tms_58MSO_real.hdf,31,True,75.2,75.2,76.2,3.568063259124756,811228,162245.6,7.195557206266257e-11,6.654908176671472e-11,1.939086153890016e-10,"[76.2, 93.8, 113.8, 124.0, 143.8, 164.0, 204.0, 234.0, 254.0]","[75.2, 91.4, 113.0, 123.6, 143.4, 163.4, 203.6, 233.6, 253.6]","[7.195557206266257e-11, 1.104714382431043e-10, 5.711552189895616e-11, 5.490333542650643e-11, 7.336760391110819e-11, 6.802019900991527e-11, 4.30008338738954e-11, 3.8128741260179314e-11, 4.360449372492254e-11]","[1.939086153890016e-10, 1.2219222864655483e-10, 2.1727335764288337e-11, 1.7669000915430712e-11, 4.9956554823915526e-11, 3.6471400311501444e-11, 6.341374968716851e-12, 4.108461119756126e-12, 7.802399518688772e-12]",3.0627575240237216e-11,5.406490295947855e-12,6.30527123607234e-12,0.8095238095238095,9,0.29227201310110695,0.0012393741635605693
08_06TG_tms_58MSO_real.hdf,32,True,86.8,86.8,93.4,0.26584380865097046,836231,167246.2,7.6904186614403e-09,7.3666532399693765e-09,2.564659391197052e-08,"[93.4, 112.8, 127.2, 156.2, 169.8, 226.4]","[86.8, 86.8, 86.8, 155.6, 169.2, 226.2]","[7.6904186614403e-09, 2.2073930522297043e-08, 3.043896893767541e-08, 1.0524306178853619e-10, 7.908984575354001e-11, 4.4800577122978124e-11]","[2.564659391197052e-08, 8.011847079903548e-08, 1.1889607368571957e-07, 6.94947185149469e-11, 4.040493631098919e-11, 4.823300492684198e-12]",3.429156477777868e-11,6.471436158548915e-12,6.955032154807441e-12,1.0,6,2.2274961545958893,0.0006813782965764403
08_06TG_tms_58MSO_real.hdf,33,False,,,,0.018792666494846344,859735,171947.0,,,,[],[],[],[],3.1762667366543256e-11,5.512897815084758e-12,6.562442387864625e-12,0.0,0,0.03179975669754738,0.0012026610784232616
08_06TG_tms_58MSO_real.hdf,34,True,117.0,117.0,120.0,0.9195504188537598,884364,176872.8,4.742812611863444e-10,4.0167998307352633e-10,1.4600735387496542e-09,"[120.0, 130.8, 141.0, 172.8, 208.6, 220.0]","[117.0, 117.0, 117.0, 157.0, 206.4, 214.8]","[4.742812611863444e-10, 6.364610103408323e-09, 1.969589045672912e-08, 8.320587467779554e-10, 1.3472187911754061e-10, 2.654500658248985e-10]","[1.4600735387496542e-09, 2.2452238105796074e-08, 6.672465976512506e-08, 2.6992770245914287e-09, 3.219743705218432e-10, 6.575353845247094e-10]",3.94915912738696e-11,7.607376874865957e-12,7.97105359975091e-12,1.0,6,1.2841587694901797,1.458571023249533e-05
08_06TG_tms_58MSO_real.hdf,35,True,95.6,95.6,98.6,0.564885139465332,911243,182248.6,7.502377436830629e-10,2.693939395035997e-10,3.553024439983996e-09,"[98.6, 110.8, 126.8, 137.4, 156.2]","[95.6, 95.6, 121.8, 132.6, 156.0]","[7.502377436830629e-10, 1.5836213672771796e-08, 8.16847397542568e-10, 9.96374369547966e-10, 5.7189215710252136e-11]","[3.553024439983996e-09, 6.240461309370975e-08, 2.6503403605593678e-09, 2.970035503597821e-09, 1.6023584151661162e-11]",3.9200407284756655e-11,7.507886626418837e-12,7.923130164584454e-12,1.0,5,1.2870803728856903,0.00012817939568776637
08_06TG_tms_58MSO_real.hdf,36,False,,,,0.14074276387691498,936747,187349.4,,,,[],[],[],[],3.6696929839404e-11,6.700051389143737e-12,7.499219612565066e-12,0.0,0,0.040766786119604326,-0.0002608691866043955
08_06TG_tms_58MSO_real.hdf,37,True,80.4,80.4,82.8,1.404144048690796,963626,192725.2,1.510238140777889e-10,1.5750747854052434e-10,3.1457182969885256e-10,"[82.8, 193.4, 204.4, 215.2, 250.2, 271.0]","[80.4, 186.6, 203.8, 214.0, 248.4, 267.6]","[1.510238140777889e-10, 3.035482557899973e-10, 6.767059960110877e-11, 1.3089572254298106e-10, 6.424424045678076e-11, 1.5989115679924657e-10]","[3.1457182969885256e-10, 8.889041274275263e-10, 2.937592999258947e-10, 3.1096673933085174e-10, 5.507419123309697e-11, 4.287007974357391e-10]",3.363857826645138e-11,6.11050430688895e-12,6.8820184898906074e-12,1.0,6,0.18780730122839087,0.00041522967512719333
08_06TG_tms_58MSO_real.hdf,38,True,119.8,119.8,131.2,0.34968301653862,992256,198451.2,1.640226041557098e-08,1.569576621145232e-08,8.101859206972261e-08,"[131.2, 146.2, 191.8, 211.8]","[119.8, 119.8, 191.4, 211.4]","[1.640226041557098e-08, 6.32699632780494e-08, 9.578190891133469e-11, 5.883287867768293e-11]","[8.101859206972261e-08, 2.1927025941805456e-07, 3.9450006424952376e-11, 1.090058230463097e-11]",3.761448578748778e-11,6.545177558242731e-12,7.767327057311263e-12,1.0,4,2.4257589651914047,-0.00034343410516157746
08_06TG_tms_58MSO_real.hdf,39,False,,,,0.40389880537986755,1019510,203902.0,,,,[],[],[],[],3.476393805806549e-11,5.938969035894642e-12,7.206242255542713e-12,0.0,0,0.05866002609965126,0.0018381316913291812
08_06TG_tms_58MSO_real.hdf,40,True,244.8,244.8,251.4,0.3354872167110443,1047848,209569.6,3.0762150856670396e-10,2.9994578281394365e-10,1.128737819711734e-09,"[121.8, 133.4, 160.2, 251.4, 264.8, 276.0, 288.0]","[120.0, 126.6, 154.2, 244.8, 262.0, 262.0, 282.8]","[8.79933085151132e-11, 5.32447018049591e-09, 3.783959117596786e-09, 3.0762150856670396e-10, 4.392952824791793e-10, 6.494880593066053e-10, 2.8685506494252817e-09]","[1.3882077866603152e-10, 1.671249738966573e-08, 1.267396071765321e-08, 1.128737819711734e-09, 1.6589065578921444e-09, 2.2659920634367233e-09, 1.064077798681499e-08]",3.4073403106361725e-11,6.7522453941328465e-12,6.83028942805722e-12,1.0,7,0.6656655716091471,0.0011185584589838982
